id,tx,ty,tz,qw,qx,qy,qz,fx,fy,cx,cy
0,2.595057,-2.231426,-0.793914,-0.204152,-0.012462,-0.977042,0.059620,1414.141602,1414.141602,480,270
1,2.595271,-2.229599,-0.786143,-0.203167,-0.012416,-0.977243,0.059702,1414.141602,1414.141602,480,270
2,2.595904,-2.224298,-0.763618,-0.200294,-0.012282,-0.977823,0.059940,1414.141602,1414.141602,480,270
3,2.596940,-2.215801,-0.727518,-0.195652,-0.012063,-0.978742,0.060322,1414.141602,1414.141602,480,270
4,2.598362,-2.204381,-0.679024,-0.189357,-0.011760,-0.979951,0.060834,1414.141602,1414.141602,480,270
5,2.600156,-2.190313,-0.619317,-0.181527,-0.011373,-0.981397,0.061464,1414.141602,1414.141602,480,270
6,2.602304,-2.173872,-0.549576,-0.172279,-0.010905,-0.983022,0.062198,1414.141602,1414.141602,480,270
7,2.604792,-2.155333,-0.470983,-0.161729,-0.010354,-0.984766,0.063021,1414.141602,1414.141602,480,270
8,2.607604,-2.134971,-0.384717,-0.149997,-0.009723,-0.986570,0.063921,1414.141602,1414.141602,480,270
9,2.610723,-2.113061,-0.291960,-0.137199,-0.009011,-0.988375,0.064883,1414.141602,1414.141602,480,270
10,2.614135,-2.089877,-0.193890,-0.123457,-0.008220,-0.990126,0.065893,1414.141602,1414.141602,480,270
11,2.617822,-2.065695,-0.091689,-0.108892,-0.007354,-0.991770,0.066936,1414.141602,1414.141602,480,270
12,2.621770,-2.040789,0.013462,-0.093629,-0.006414,-0.993262,0.068000,1414.141602,1414.141602,480,270
13,2.625962,-2.015434,0.120385,-0.077791,-0.005407,-0.994560,0.069069,1414.141602,1414.141602,480,270
14,2.630383,-1.989905,0.227897,-0.061504,-0.004337,-0.995630,0.070131,1414.141602,1414.141602,480,270
15,2.635017,-1.964476,0.334819,-0.044897,-0.003211,-0.996448,0.071171,1414.141602,1414.141602,480,270
16,2.639848,-1.939423,0.439971,-0.028098,-0.002039,-0.996994,0.072177,1414.141602,1414.141602,480,270
17,2.644861,-1.915021,0.542172,-0.011236,-0.000828,-0.997258,0.073137,1414.141602,1414.141602,480,270
18,2.650039,-1.891544,0.640241,0.005561,0.000408,-0.997240,0.074038,1414.141602,1414.141602,480,270
19,2.655366,-1.869267,0.732999,0.022163,0.001660,-0.996946,0.074870,1414.141602,1414.141602,480,270
20,2.660827,-1.848466,0.819265,0.038441,0.002913,-0.996391,0.075621,1414.141602,1414.141602,480,270
21,2.666407,-1.829414,0.897858,0.054269,0.004154,-0.995600,0.076284,1414.141602,1414.141602,480,270
22,2.672088,-1.812387,0.967598,0.069518,0.005367,-0.994602,0.076847,1414.141602,1414.141602,480,270
23,2.677856,-1.797659,1.027306,0.084063,0.006537,-0.993436,0.077305,1414.141602,1414.141602,480,270
24,2.683695,-1.785506,1.075799,0.097781,0.007648,-0.992145,0.077649,1414.141602,1414.141602,480,270
25,2.689588,-1.776202,1.111899,0.110548,0.008684,-0.990777,0.077872,1414.141602,1414.141602,480,270
26,2.695521,-1.770023,1.134425,0.122243,0.009629,-0.989386,0.077969,1414.141602,1414.141602,480,270
27,2.701476,-1.767242,1.142195,0.132747,0.010466,-0.988026,0.077932,1414.141602,1414.141602,480,270
28,2.708495,-1.766274,1.140627,0.142691,0.011245,-0.986642,0.077787,1414.141602,1414.141602,480,270
29,2.717597,-1.765348,1.135964,0.152780,0.012024,-0.985139,0.077562,1414.141602,1414.141602,480,270
30,2.728734,-1.764463,1.128274,0.163007,0.012800,-0.983512,0.077258,1414.141602,1414.141602,480,270
31,2.741858,-1.763620,1.117622,0.173364,0.013571,-0.981759,0.076877,1414.141602,1414.141602,480,270
32,2.756921,-1.762815,1.104074,0.183844,0.014333,-0.979875,0.076420,1414.141602,1414.141602,480,270
33,2.773876,-1.762050,1.087696,0.194440,0.015085,-0.977858,0.075889,1414.141602,1414.141602,480,270
34,2.792676,-1.761323,1.068553,0.205142,0.015824,-0.975704,0.075285,1414.141602,1414.141602,480,270
35,2.813271,-1.760633,1.046712,0.215944,0.016547,-0.973410,0.074611,1414.141602,1414.141602,480,270
36,2.835615,-1.759979,1.022237,0.226838,0.017252,-0.970974,0.073867,1414.141602,1414.141602,480,270
37,2.859660,-1.759361,0.995196,0.237815,0.017936,-0.968393,0.073056,1414.141602,1414.141602,480,270
38,2.885359,-1.758777,0.965654,0.248867,0.018597,-0.965665,0.072180,1414.141602,1414.141602,480,270
39,2.912662,-1.758228,0.933677,0.259987,0.019233,-0.962788,0.071240,1414.141602,1414.141602,480,270
40,2.941523,-1.757711,0.899330,0.271167,0.019840,-0.959761,0.070239,1414.141602,1414.141602,480,270
41,2.971895,-1.757227,0.862679,0.282398,0.020418,-0.956582,0.069178,1414.141602,1414.141602,480,270
42,3.003728,-1.756774,0.823791,0.293672,0.020963,-0.953250,0.068061,1414.141602,1414.141602,480,270
43,3.036977,-1.756351,0.782731,0.304981,0.021474,-0.949764,0.066888,1414.141602,1414.141602,480,270
44,3.071591,-1.755958,0.739565,0.316317,0.021948,-0.946124,0.065663,1414.141602,1414.141602,480,270
45,3.107526,-1.755594,0.694358,0.327673,0.022384,-0.942329,0.064388,1414.141602,1414.141602,480,270
46,3.144731,-1.755258,0.647177,0.339039,0.022780,-0.938380,0.063064,1414.141602,1414.141602,480,270
47,3.183160,-1.754948,0.598088,0.350409,0.023134,-0.934276,0.061695,1414.141602,1414.141602,480,270
48,3.222765,-1.754666,0.547156,0.361773,0.023445,-0.930020,0.060283,1414.141602,1414.141602,480,270
49,3.263499,-1.754408,0.494447,0.373125,0.023710,-0.925610,0.058830,1414.141602,1414.141602,480,270
50,3.305312,-1.754176,0.440026,0.384457,0.023929,-0.921050,0.057338,1414.141602,1414.141602,480,270
51,3.348159,-1.753967,0.383961,0.395760,0.024099,-0.916340,0.055811,1414.141602,1414.141602,480,270
52,3.391991,-1.753781,0.326316,0.407027,0.024221,-0.911482,0.054251,1414.141602,1414.141602,480,270
53,3.436760,-1.753617,0.267158,0.418250,0.024292,-0.906479,0.052661,1414.141602,1414.141602,480,270
54,3.482419,-1.753474,0.206551,0.429422,0.024313,-0.901332,0.051042,1414.141602,1414.141602,480,270
55,3.528919,-1.753352,0.144563,0.440536,0.024281,-0.896046,0.049398,1414.141602,1414.141602,480,270
56,3.576214,-1.753249,0.081259,0.451584,0.024196,-0.890622,0.047731,1414.141602,1414.141602,480,270
57,3.624255,-1.753165,0.016704,0.462560,0.024058,-0.885065,0.046043,1414.141602,1414.141602,480,270
58,3.672995,-1.753099,-0.049034,0.473455,0.023866,-0.879377,0.044339,1414.141602,1414.141602,480,270
59,3.722386,-1.753050,-0.115892,0.484264,0.023620,-0.873564,0.042618,1414.141602,1414.141602,480,270
60,3.772380,-1.753018,-0.183802,0.494980,0.023320,-0.867629,0.040886,1414.141602,1414.141602,480,270
61,3.822930,-1.753000,-0.252699,0.505596,0.022965,-0.861576,0.039143,1414.141602,1414.141602,480,270
62,3.873987,-1.752997,-0.322517,0.516106,0.022555,-0.855411,0.037392,1414.141602,1414.141602,480,270
63,3.925505,-1.753008,-0.393191,0.526503,0.022091,-0.849139,0.035637,1414.141602,1414.141602,480,270
64,3.977436,-1.753032,-0.464654,0.536782,0.021572,-0.842764,0.033878,1414.141602,1414.141602,480,270
65,4.029730,-1.753068,-0.536840,0.546938,0.021000,-0.836293,0.032119,1414.141602,1414.141602,480,270
66,4.082343,-1.753114,-0.609684,0.556964,0.020375,-0.829732,0.030362,1414.141602,1414.141602,480,270
67,4.135223,-1.753172,-0.683120,0.566854,0.019697,-0.823085,0.028609,1414.141602,1414.141602,480,270
68,4.188326,-1.753238,-0.757082,0.576605,0.018967,-0.816361,0.026862,1414.141602,1414.141602,480,270
69,4.241602,-1.753314,-0.831505,0.586211,0.018186,-0.809565,0.025123,1414.141602,1414.141602,480,270
70,4.295005,-1.753397,-0.906321,0.595667,0.017355,-0.802703,0.023395,1414.141602,1414.141602,480,270
71,4.348485,-1.753487,-0.981467,0.604969,0.016475,-0.795784,0.021679,1414.141602,1414.141602,480,270
72,4.401997,-1.753584,-1.056875,0.614112,0.015547,-0.788813,0.019977,1414.141602,1414.141602,480,270
73,4.455491,-1.753686,-1.132480,0.623092,0.014572,-0.781799,0.018291,1414.141602,1414.141602,480,270
74,4.508921,-1.753792,-1.208216,0.631906,0.013552,-0.774748,0.016623,1414.141602,1414.141602,480,270
75,4.562238,-1.753901,-1.284017,0.640550,0.012488,-0.767669,0.014974,1414.141602,1414.141602,480,270
76,4.615395,-1.754014,-1.359818,0.649021,0.011382,-0.760568,0.013346,1414.141602,1414.141602,480,270
77,4.668344,-1.754128,-1.435552,0.657315,0.010236,-0.753455,0.011740,1414.141602,1414.141602,480,270
78,4.721037,-1.754244,-1.511154,0.665430,0.009050,-0.746336,0.010158,1414.141602,1414.141602,480,270
79,4.773427,-1.754360,-1.586558,0.673363,0.007828,-0.739221,0.008600,1414.141602,1414.141602,480,270
80,4.825466,-1.754475,-1.661698,0.681111,0.006570,-0.732117,0.007069,1414.141602,1414.141602,480,270
81,4.877106,-1.754589,-1.736508,0.688672,0.005278,-0.725033,0.005564,1414.141602,1414.141602,480,270
82,4.928298,-1.754701,-1.810923,0.696045,0.003955,-0.717976,0.004087,1414.141602,1414.141602,480,270
83,4.978998,-1.754809,-1.884876,0.703226,0.002603,-0.710956,0.002639,1414.141602,1414.141602,480,270
84,5.029155,-1.754914,-1.958302,0.710216,0.001224,-0.703982,0.001220,1414.141602,1414.141602,480,270
85,5.078722,-1.755014,-2.031135,0.717012,-0.000181,-0.697061,-0.000169,1414.141602,1414.141602,480,270
86,5.127651,-1.755108,-2.103308,0.723613,-0.001608,-0.690203,-0.001527,1414.141602,1414.141602,480,270
87,5.175896,-1.755196,-2.174757,0.730018,-0.003057,-0.683415,-0.002855,1414.141602,1414.141602,480,270
88,5.223407,-1.755276,-2.245416,0.736226,-0.004524,-0.676708,-0.004151,1414.141602,1414.141602,480,270
89,5.270139,-1.755349,-2.315218,0.742237,-0.006007,-0.670089,-0.005416,1414.141602,1414.141602,480,270
90,5.316042,-1.755412,-2.384097,0.748050,-0.007504,-0.663567,-0.006650,1414.141602,1414.141602,480,270
91,5.361068,-1.755466,-2.451988,0.753664,-0.009012,-0.657151,-0.007852,1414.141602,1414.141602,480,270
92,5.405171,-1.755509,-2.518826,0.759080,-0.010530,-0.650850,-0.009022,1414.141602,1414.141602,480,270
93,5.448302,-1.755540,-2.584545,0.764296,-0.012055,-0.644672,-0.010162,1414.141602,1414.141602,480,270
94,5.490414,-1.755560,-2.649077,0.769314,-0.013584,-0.638627,-0.011270,1414.141602,1414.141602,480,270
95,5.531459,-1.755566,-2.712358,0.774134,-0.015116,-0.632721,-0.012348,1414.141602,1414.141602,480,270
96,5.571390,-1.755558,-2.774322,0.778754,-0.016647,-0.626965,-0.013396,1414.141602,1414.141602,480,270
97,5.610157,-1.755535,-2.834901,0.783177,-0.018176,-0.621366,-0.014414,1414.141602,1414.141602,480,270
98,5.647716,-1.755496,-2.894032,0.787401,-0.019699,-0.615934,-0.015403,1414.141602,1414.141602,480,270
99,5.684015,-1.755441,-2.951649,0.791427,-0.021215,-0.610676,-0.016363,1414.141602,1414.141602,480,270
100,5.719010,-1.755369,-3.007685,0.795257,-0.022722,-0.605600,-0.017296,1414.141602,1414.141602,480,270
101,5.752653,-1.755278,-3.062075,0.798889,-0.024216,-0.600715,-0.018202,1414.141602,1414.141602,480,270
102,5.784893,-1.755169,-3.114753,0.802324,-0.025696,-0.596029,-0.019082,1414.141602,1414.141602,480,270
103,5.815683,-1.755039,-3.165653,0.805564,-0.027158,-0.591551,-0.019937,1414.141602,1414.141602,480,270
104,5.844979,-1.754889,-3.214708,0.808607,-0.028602,-0.587286,-0.020767,1414.141602,1414.141602,480,270
105,5.872730,-1.754717,-3.261852,0.811455,-0.030024,-0.583245,-0.021574,1414.141602,1414.141602,480,270
106,5.898889,-1.754523,-3.307022,0.814107,-0.031423,-0.579433,-0.022358,1414.141602,1414.141602,480,270
107,5.923408,-1.754306,-3.350151,0.816563,-0.032795,-0.575859,-0.023121,1414.141602,1414.141602,480,270
108,5.946241,-1.754064,-3.391172,0.818825,-0.034139,-0.572531,-0.023864,1414.141602,1414.141602,480,270
109,5.967338,-1.753798,-3.430020,0.820890,-0.035453,-0.569454,-0.024587,1414.141602,1414.141602,480,270
110,5.986652,-1.753506,-3.466629,0.822760,-0.036733,-0.566637,-0.025292,1414.141602,1414.141602,480,270
111,6.004136,-1.753187,-3.500933,0.824433,-0.037979,-0.564086,-0.025979,1414.141602,1414.141602,480,270
112,6.019742,-1.752841,-3.532867,0.825909,-0.039187,-0.561809,-0.026650,1414.141602,1414.141602,480,270
113,6.033422,-1.752467,-3.562364,0.827187,-0.040357,-0.559811,-0.027306,1414.141602,1414.141602,480,270
114,6.045127,-1.752063,-3.589359,0.828265,-0.041484,-0.558099,-0.027947,1414.141602,1414.141602,480,270
115,6.054812,-1.751629,-3.613786,0.829144,-0.042569,-0.556679,-0.028574,1414.141602,1414.141602,480,270
116,6.062428,-1.751165,-3.635579,0.829820,-0.043607,-0.555558,-0.029188,1414.141602,1414.141602,480,270
117,6.067927,-1.750669,-3.654672,0.830292,-0.044598,-0.554742,-0.029791,1414.141602,1414.141602,480,270
118,6.071261,-1.750141,-3.670999,0.830558,-0.045540,-0.554235,-0.030382,1414.141602,1414.141602,480,270
119,6.072383,-1.749579,-3.684495,0.830615,-0.046429,-0.554043,-0.030963,1414.141602,1414.141602,480,270
120,6.071423,-1.748963,-3.696189,0.830490,-0.047276,-0.554128,-0.031538,1414.141602,1414.141602,480,270
121,6.068573,-1.748273,-3.707170,0.830211,-0.048090,-0.554442,-0.032110,1414.141602,1414.141602,480,270
122,6.063880,-1.747512,-3.717463,0.829782,-0.048872,-0.554982,-0.032680,1414.141602,1414.141602,480,270
123,6.057387,-1.746684,-3.727091,0.829206,-0.049621,-0.555742,-0.033250,1414.141602,1414.141602,480,270
124,6.049141,-1.745790,-3.736079,0.828486,-0.050337,-0.556717,-0.033819,1414.141602,1414.141602,480,270
125,6.039187,-1.744835,-3.744450,0.827623,-0.051022,-0.557901,-0.034387,1414.141602,1414.141602,480,270
126,6.027571,-1.743819,-3.752228,0.826621,-0.051674,-0.559290,-0.034956,1414.141602,1414.141602,480,270
127,6.014338,-1.742748,-3.759440,0.825481,-0.052294,-0.560878,-0.035525,1414.141602,1414.141602,480,270
128,5.999532,-1.741622,-3.766107,0.824206,-0.052882,-0.562659,-0.036095,1414.141602,1414.141602,480,270
129,5.983201,-1.740445,-3.772254,0.822798,-0.053439,-0.564627,-0.036665,1414.141602,1414.141602,480,270
130,5.965389,-1.739220,-3.777906,0.821257,-0.053965,-0.566778,-0.037237,1414.141602,1414.141602,480,270
131,5.946141,-1.737950,-3.783086,0.819588,-0.054459,-0.569105,-0.037809,1414.141602,1414.141602,480,270
132,5.925503,-1.736637,-3.787818,0.817790,-0.054923,-0.571603,-0.038383,1414.141602,1414.141602,480,270
133,5.903522,-1.735285,-3.792127,0.815866,-0.055356,-0.574265,-0.038957,1414.141602,1414.141602,480,270
134,5.880240,-1.733895,-3.796036,0.813818,-0.055759,-0.577086,-0.039533,1414.141602,1414.141602,480,270
135,5.855705,-1.732472,-3.799571,0.811647,-0.056132,-0.580060,-0.040109,1414.141602,1414.141602,480,270
136,5.829962,-1.731017,-3.802754,0.809354,-0.056475,-0.583181,-0.040687,1414.141602,1414.141602,480,270
137,5.803056,-1.729533,-3.805611,0.806942,-0.056790,-0.586444,-0.041265,1414.141602,1414.141602,480,270
138,5.775033,-1.728024,-3.808164,0.804412,-0.057075,-0.589841,-0.041844,1414.141602,1414.141602,480,270
139,5.745937,-1.726492,-3.810439,0.801766,-0.057332,-0.593367,-0.042423,1414.141602,1414.141602,480,270
140,5.715815,-1.724940,-3.812459,0.799005,-0.057560,-0.597017,-0.043002,1414.141602,1414.141602,480,270
141,5.684712,-1.723371,-3.814249,0.796131,-0.057761,-0.600783,-0.043582,1414.141602,1414.141602,480,270
142,5.652673,-1.721787,-3.815832,0.793145,-0.057935,-0.604660,-0.044161,1414.141602,1414.141602,480,270
143,5.619745,-1.720192,-3.817233,0.790050,-0.058082,-0.608643,-0.044739,1414.141602,1414.141602,480,270
144,5.585971,-1.718587,-3.818475,0.786847,-0.058203,-0.612724,-0.045316,1414.141602,1414.141602,480,270
145,5.551398,-1.716977,-3.819584,0.783537,-0.058298,-0.616899,-0.045892,1414.141602,1414.141602,480,270
146,5.516070,-1.715364,-3.820583,0.780124,-0.058367,-0.621161,-0.046467,1414.141602,1414.141602,480,270
147,5.480035,-1.713750,-3.821496,0.776608,-0.058412,-0.625504,-0.047040,1414.141602,1414.141602,480,270
148,5.443336,-1.712139,-3.822346,0.772992,-0.058432,-0.629922,-0.047610,1414.141602,1414.141602,480,270
149,5.406019,-1.710533,-3.823160,0.769279,-0.058429,-0.634410,-0.048178,1414.141602,1414.141602,480,270
150,5.368130,-1.708935,-3.823959,0.765469,-0.058402,-0.638961,-0.048743,1414.141602,1414.141602,480,270
151,5.329714,-1.707348,-3.824770,0.761566,-0.058353,-0.643570,-0.049304,1414.141602,1414.141602,480,270
152,5.290817,-1.705775,-3.825614,0.757571,-0.058281,-0.648231,-0.049862,1414.141602,1414.141602,480,270
153,5.251483,-1.704218,-3.826518,0.753488,-0.058188,-0.652938,-0.050416,1414.141602,1414.141602,480,270
154,5.211760,-1.702681,-3.827505,0.749318,-0.058074,-0.657687,-0.050965,1414.141602,1414.141602,480,270
155,5.171691,-1.701166,-3.828598,0.745066,-0.057940,-0.662470,-0.051510,1414.141602,1414.141602,480,270
156,5.131322,-1.699675,-3.829823,0.740732,-0.057786,-0.667284,-0.052049,1414.141602,1414.141602,480,270
157,5.090699,-1.698213,-3.831203,0.736321,-0.057613,-0.672121,-0.052583,1414.141602,1414.141602,480,270
158,5.049867,-1.696781,-3.832762,0.731835,-0.057422,-0.676978,-0.053111,1414.141602,1414.141602,480,270
159,5.008872,-1.695382,-3.834525,0.727278,-0.057214,-0.681849,-0.053632,1414.141602,1414.141602,480,270
160,4.967759,-1.694020,-3.836515,0.722652,-0.056988,-0.686728,-0.054147,1414.141602,1414.141602,480,270
161,4.926572,-1.692696,-3.838757,0.717961,-0.056746,-0.691610,-0.054655,1414.141602,1414.141602,480,270
162,4.885360,-1.691415,-3.841275,0.713209,-0.056488,-0.696492,-0.055156,1414.141602,1414.141602,480,270
163,4.844164,-1.690178,-3.844092,0.708398,-0.056215,-0.701366,-0.055650,1414.141602,1414.141602,480,270
164,4.803033,-1.688989,-3.847234,0.703534,-0.055929,-0.706230,-0.056135,1414.141602,1414.141602,480,270
165,4.762012,-1.687850,-3.850724,0.698619,-0.055629,-0.711078,-0.056613,1414.141602,1414.141602,480,270
166,4.721144,-1.686764,-3.854585,0.693657,-0.055316,-0.715906,-0.057082,1414.141602,1414.141602,480,270
167,4.680476,-1.685734,-3.858843,0.688654,-0.054991,-0.720709,-0.057542,1414.141602,1414.141602,480,270
168,4.640054,-1.684762,-3.863522,0.683612,-0.054655,-0.725482,-0.057994,1414.141602,1414.141602,480,270
169,4.599922,-1.683853,-3.868645,0.678536,-0.054308,-0.730222,-0.058437,1414.141602,1414.141602,480,270
170,4.560127,-1.683007,-3.874236,0.673431,-0.053952,-0.734925,-0.058870,1414.141602,1414.141602,480,270
171,4.520713,-1.682229,-3.880321,0.668301,-0.053587,-0.739586,-0.059294,1414.141602,1414.141602,480,270
172,4.481727,-1.681521,-3.886922,0.663150,-0.053213,-0.744201,-0.059709,1414.141602,1414.141602,480,270
173,4.443213,-1.680885,-3.894064,0.657983,-0.052832,-0.748767,-0.060113,1414.141602,1414.141602,480,270
174,4.405217,-1.680325,-3.901772,0.652806,-0.052445,-0.753281,-0.060508,1414.141602,1414.141602,480,270
175,4.367785,-1.679844,-3.910068,0.647623,-0.052051,-0.757738,-0.060893,1414.141602,1414.141602,480,270
176,4.330961,-1.679443,-3.918978,0.642439,-0.051653,-0.762135,-0.061268,1414.141602,1414.141602,480,270
177,4.294791,-1.679127,-3.928525,0.637259,-0.051250,-0.766469,-0.061632,1414.141602,1414.141602,480,270
178,4.259321,-1.678898,-3.938734,0.632089,-0.050843,-0.770737,-0.061987,1414.141602,1414.141602,480,270
179,4.224597,-1.678758,-3.949628,0.626933,-0.050434,-0.774936,-0.062331,1414.141602,1414.141602,480,270
180,4.190662,-1.678711,-3.961232,0.621797,-0.050023,-0.779063,-0.062665,1414.141602,1414.141602,480,270
181,4.156454,-1.678843,-3.973490,0.616524,-0.049495,-0.783259,-0.062871,1414.141602,1414.141602,480,270
182,4.120921,-1.679235,-3.986320,0.610958,-0.048745,-0.787659,-0.062834,1414.141602,1414.141602,480,270
183,4.084129,-1.679879,-3.999704,0.605105,-0.047786,-0.792245,-0.062556,1414.141602,1414.141602,480,270
184,4.046142,-1.680768,-4.013625,0.598972,-0.046632,-0.797000,-0.062040,1414.141602,1414.141602,480,270
185,4.007025,-1.681893,-4.028067,0.592568,-0.045297,-0.801907,-0.061289,1414.141602,1414.141602,480,270
186,3.966844,-1.683247,-4.043013,0.585898,-0.043794,-0.806950,-0.060307,1414.141602,1414.141602,480,270
187,3.925663,-1.684824,-4.058446,0.578970,-0.042138,-0.812112,-0.059096,1414.141602,1414.141602,480,270
188,3.883546,-1.686614,-4.074350,0.571793,-0.040343,-0.817374,-0.057661,1414.141602,1414.141602,480,270
189,3.840560,-1.688611,-4.090707,0.564373,-0.038424,-0.822721,-0.056003,1414.141602,1414.141602,480,270
190,3.796768,-1.690807,-4.107501,0.556720,-0.036395,-0.828135,-0.054128,1414.141602,1414.141602,480,270
191,3.752237,-1.693195,-4.124715,0.548842,-0.034269,-0.833601,-0.052039,1414.141602,1414.141602,480,270
